TITLE	kx8_d2_melt
DATA TYPE	
ORIGIN	JASCO
OWNER	
DATE	17/09/01
TIME	13:23:13
SPECTROMETER/DATA SYSTEM	
LOCALE	2055
RESOLUTION	
DELTAX	-0.2
XUNITS	NANOMETERS
YUNITS	CD [mdeg]
Y2UNITS	HT [V]
FIRSTX	  250.0000
LASTX	  195.0000
NPOINTS	     276
FIRSTY	    -0.09154
MAXY	     2.64540
MINY	   -25.53518
XYDATA
250.0000	-0.09154	309.13
249.8000	-0.118481	309.401
249.6000	-0.142204	309.673
249.4000	-0.150713	309.947
249.2000	-0.178394	310.223
249.0000	-0.226532	310.498
248.8000	-0.24205	310.777
248.6000	-0.255135	311.057
248.4000	-0.259715	311.336
248.2000	-0.25714	311.617
248.0000	-0.270993	311.895
247.8000	-0.275925	312.177
247.6000	-0.327818	312.458
247.4000	-0.367957	312.744
247.2000	-0.399922	313.03
247.0000	-0.413296	313.314
246.8000	-0.459054	313.599
246.6000	-0.499192	313.885
246.4000	-0.544969	314.173
246.2000	-0.576193	314.463
246.0000	-0.614302	314.755
245.8000	-0.667468	315.048
245.6000	-0.70758	315.341
245.4000	-0.732139	315.639
245.2000	-0.755419	315.943
245.0000	-0.829855	316.245
244.8000	-0.89192	316.551
244.6000	-0.936296	316.86
244.4000	-1.0003	317.169
244.2000	-1.07327	317.485
244.0000	-1.15311	317.807
243.8000	-1.21071	318.127
243.6000	-1.30243	318.454
243.4000	-1.35894	318.786
243.2000	-1.42426	319.122
243.0000	-1.49011	319.463
242.8000	-1.56985	319.805
242.6000	-1.65565	320.152
242.4000	-1.71959	320.504
242.2000	-1.7985	320.861
242.0000	-1.8815	321.222
241.8000	-1.99819	321.588
241.6000	-2.13446	321.961
241.4000	-2.25635	322.342
241.2000	-2.3765	322.725
241.0000	-2.47868	323.119
240.8000	-2.55618	323.515
240.6000	-2.66854	323.917
240.4000	-2.81211	324.328
240.2000	-2.92589	324.746
240.0000	-3.0458	325.172
239.8000	-3.19986	325.608
239.6000	-3.33913	326.047
239.4000	-3.46831	326.497
239.2000	-3.56566	326.957
239.0000	-3.69874	327.425
238.8000	-3.8573	327.905
238.6000	-4.04033	328.387
238.4000	-4.22465	328.881
238.2000	-4.3778	329.384
238.0000	-4.55477	329.899
237.8000	-4.70905	330.423
237.6000	-4.8851	330.956
237.4000	-5.05075	331.498
237.2000	-5.2478	332.052
237.0000	-5.43018	332.615
236.8000	-5.62532	333.192
236.6000	-5.8172	333.778
236.4000	-6.01658	334.377
236.2000	-6.24491	334.99
236.0000	-6.43246	335.614
235.8000	-6.66478	336.252
235.6000	-6.93426	336.901
235.4000	-7.16762	337.566
235.2000	-7.39863	338.235
235.0000	-7.58976	338.92
234.8000	-7.80289	339.614
234.6000	-8.03169	340.318
234.4000	-8.24748	341.042
234.2000	-8.51298	341.774
234.0000	-8.76712	342.523
233.8000	-9.01326	343.283
233.6000	-9.29076	344.054
233.4000	-9.55785	344.833
233.2000	-9.79314	345.628
233.0000	-10.0726	346.427
232.8000	-10.3679	347.237
232.6000	-10.6794	348.055
232.4000	-10.9618	348.883
232.2000	-11.2164	349.72
232.0000	-11.5098	350.569
231.8000	-11.7555	351.433
231.6000	-12.013	352.304
231.4000	-12.29	353.182
231.2000	-12.5754	354.068
231.0000	-12.864	354.961
230.8000	-13.1723	355.863
230.6000	-13.474	356.768
230.4000	-13.7497	357.684
230.2000	-14.0325	358.602
230.0000	-14.3199	359.521
229.8000	-14.6354	360.443
229.6000	-14.9157	361.363
229.4000	-15.2032	362.285
229.2000	-15.4593	363.208
229.0000	-15.7227	364.133
228.8000	-16	365.051
228.6000	-16.2867	365.977
228.4000	-16.601	366.898
228.2000	-16.8503	367.825
228.0000	-17.1116	368.752
227.8000	-17.4018	369.675
227.6000	-17.6524	370.598
227.4000	-17.9283	371.513
227.2000	-18.1964	372.427
227.0000	-18.4499	373.341
226.8000	-18.7004	374.254
226.6000	-18.9829	375.161
226.4000	-19.2877	376.073
226.2000	-19.4796	376.977
226.0000	-19.7157	377.887
225.8000	-19.9527	378.792
225.6000	-20.1547	379.695
225.4000	-20.3557	380.597
225.2000	-20.5459	381.493
225.0000	-20.7707	382.386
224.8000	-20.9414	383.279
224.6000	-21.0733	384.171
224.4000	-21.2241	385.061
224.2000	-21.3702	385.952
224.0000	-21.503	386.845
223.8000	-21.6203	387.732
223.6000	-21.7756	388.623
223.4000	-21.921	389.515
223.2000	-22.0256	390.408
223.0000	-22.1316	391.306
222.8000	-22.2138	392.207
222.6000	-22.3039	393.108
222.4000	-22.3876	394.014
222.2000	-22.5095	394.92
222.0000	-22.5771	395.828
221.8000	-22.6504	396.742
221.6000	-22.7614	397.654
221.4000	-22.7789	398.572
221.2000	-22.8638	399.49
221.0000	-22.9259	400.409
220.8000	-22.9729	401.339
220.6000	-23.0231	402.265
220.4000	-23.0545	403.197
220.2000	-23.0715	404.132
220.0000	-23.101	405.067
219.8000	-23.0763	406.011
219.6000	-23.0947	406.96
219.4000	-23.0994	407.916
219.2000	-23.0707	408.873
219.0000	-23.0847	409.837
218.8000	-23.131	410.802
218.6000	-23.1694	411.778
218.4000	-23.1192	412.754
218.2000	-23.0938	413.739
218.0000	-23.1336	414.727
217.8000	-23.1514	415.725
217.6000	-23.0935	416.726
217.4000	-23.086	417.738
217.2000	-23.1138	418.754
217.0000	-23.1398	419.781
216.8000	-23.1407	420.82
216.6000	-23.1737	421.862
216.4000	-23.1517	422.915
216.2000	-23.1544	423.978
216.0000	-23.121	425.049
215.8000	-23.1132	426.135
215.6000	-23.1526	427.231
215.4000	-23.1038	428.339
215.2000	-23.0631	429.461
215.0000	-23.1123	430.6
214.8000	-23.2393	431.753
214.6000	-23.2959	432.927
214.4000	-23.351	434.109
214.2000	-23.3432	435.316
214.0000	-23.3608	436.535
213.8000	-23.3725	437.776
213.6000	-23.4723	439.038
213.4000	-23.52	440.32
213.2000	-23.5393	441.619
213.0000	-23.5453	442.937
212.8000	-23.6501	444.279
212.6000	-23.6547	445.643
212.4000	-23.7349	447.033
212.2000	-23.8459	448.446
212.0000	-23.9682	449.882
211.8000	-24.1242	451.347
211.6000	-24.3172	452.831
211.4000	-24.4022	454.35
211.2000	-24.4994	455.9
211.0000	-24.6052	457.474
210.8000	-24.6918	459.081
210.6000	-24.7792	460.714
210.4000	-24.9321	462.376
210.2000	-24.9628	464.073
210.0000	-25.0091	465.803
209.8000	-25.1119	467.568
209.6000	-25.1577	469.365
209.4000	-25.3245	471.197
209.2000	-25.3673	473.064
209.0000	-25.4726	474.973
208.8000	-25.5127	476.922
208.6000	-25.5352	478.909
208.4000	-25.4466	480.938
208.2000	-25.3074	483.008
208.0000	-25.1832	485.122
207.8000	-24.9602	487.285
207.6000	-24.7937	489.494
207.4000	-24.6649	491.766
207.2000	-24.6793	494.085
207.0000	-24.4016	496.459
206.8000	-24.2091	498.882
206.6000	-23.9855	501.373
206.4000	-23.757	503.924
206.2000	-23.37	506.55
206.0000	-23.1312	509.236
205.8000	-22.6992	511.987
205.6000	-22.1713	514.821
205.4000	-21.6421	517.73
205.2000	-21.0651	520.723
205.0000	-20.5917	523.801
204.8000	-19.9754	526.973
204.6000	-19.3925	530.242
204.4000	-18.7357	533.603
204.2000	-18.1364	537.065
204.0000	-17.3562	540.641
203.8000	-16.5952	544.323
203.6000	-15.9343	548.125
203.4000	-15.215	552.044
203.2000	-14.3416	556.086
203.0000	-13.5038	560.248
202.8000	-12.8178	564.53
202.6000	-12.1345	568.929
202.4000	-11.081	573.441
202.2000	-9.94393	578.061
202.0000	-9.30605	582.783
201.8000	-8.35946	587.594
201.6000	-7.39452	592.487
201.4000	-6.12029	597.445
201.2000	-5.40993	602.449
201.0000	-4.97125	607.481
200.8000	-4.02609	612.522
200.6000	-3.36885	617.559
200.4000	-2.86698	622.576
200.2000	-2.00911	627.559
200.0000	-1.16684	632.487
199.8000	-0.707638	637.345
199.6000	-0.406574	642.11
199.4000	-0.44451	646.783
199.2000	-0.124281	651.36
199.0000	-0.202444	655.815
198.8000	-0.0237022	660.15
198.6000	0.230612	664.353
198.4000	0.785256	668.422
198.2000	1.29075	672.337
198.0000	1.70663	676.099
197.8000	1.85775	679.706
197.6000	1.73668	683.147
197.4000	1.76465	686.419
197.2000	1.88785	689.513
197.0000	2.10882	692.427
196.8000	2.21243	695.152
196.6000	2.03681	697.684
196.4000	2.07133	700.026
196.2000	2.4293	702.177
196.0000	2.6454	704.132
195.8000	2.18392	705.894
195.6000	2.03301	707.468
195.4000	1.74371	708.857
195.2000	1.80888	710.069
195.0000	1.59193	711.113

##### Extended Information
[Comments]
Sample name	kx8_d2_melt
Comment
User
Division
Company	EPFL

[Detailed Information]
Creation date	01.09.2017 13:23

Data array type	Linear data array * 2
Horizontal axis	Wavelength [nm]
Vertical axis(1)	CD [mdeg]
Vertical axis(2)	HT [V]
Start	250 nm
End	195 nm
Data interval	0.2 nm
Data points	276     

[Measurement Information]
Instrument Name	CD-Spectrometer
Model Name	J-815
Serial No.	A007961168

Accessory	PFD-425S
Accessory S/N	A001061180
  Temperature	20.00 C
  Control Sonsor	Holder
  Monitor Sensor	Holder
  Cell Length	10 mm

Photometric Mode	CD, HT
Measure Range	250 - 195 nm
Data pitch	0.2 nm
Sensitivity	Standard
D.I.T.	8 sec
Bandwidth	1.00 nm
Start Mode	Immediately
Scanning Speed	50 nm/min
Baseline Correction	None
Shutter Control	Auto
PMT Voltage	Auto
Accumulations	2
End Temperature.	20 C
Start Temperature.	90 C
Temperature. Interval	2 C
Ramp Rate	2 C/min

