TITLE	kx8_d2_melt
DATA TYPE	
ORIGIN	JASCO
OWNER	
DATE	17/09/01
TIME	13:23:13
SPECTROMETER/DATA SYSTEM	
LOCALE	2055
RESOLUTION	
DELTAX	-0.2
XUNITS	NANOMETERS
YUNITS	CD [mdeg]
Y2UNITS	HT [V]
FIRSTX	  250.0000
LASTX	  195.0000
NPOINTS	     276
FIRSTY	    -0.19116
MAXY	     3.77492
MINY	   -23.90764
XYDATA
250.0000	-0.191156	309.436
249.8000	-0.199443	309.71
249.6000	-0.188914	309.982
249.4000	-0.171782	310.258
249.2000	-0.19824	310.536
249.0000	-0.225564	310.815
248.8000	-0.251164	311.093
248.6000	-0.28417	311.371
248.4000	-0.31973	311.649
248.2000	-0.33026	311.928
248.0000	-0.357764	312.211
247.8000	-0.374265	312.494
247.6000	-0.397341	312.781
247.4000	-0.400993	313.066
247.2000	-0.418625	313.353
247.0000	-0.44542	313.642
246.8000	-0.47149	313.93
246.6000	-0.499505	314.221
246.4000	-0.518362	314.508
246.2000	-0.54452	314.8
246.0000	-0.549998	315.094
245.8000	-0.564424	315.385
245.6000	-0.598385	315.681
245.4000	-0.645228	315.981
245.2000	-0.682746	316.282
245.0000	-0.751885	316.587
244.8000	-0.839875	316.893
244.6000	-0.886895	317.202
244.4000	-0.928201	317.52
244.2000	-0.994128	317.833
244.0000	-1.07818	318.153
243.8000	-1.16294	318.475
243.6000	-1.20273	318.804
243.4000	-1.24551	319.135
243.2000	-1.31725	319.473
243.0000	-1.39717	319.812
242.8000	-1.48012	320.157
242.6000	-1.56044	320.505
242.4000	-1.62636	320.857
242.2000	-1.71409	321.216
242.0000	-1.79986	321.58
241.8000	-1.8864	321.952
241.6000	-1.9878	322.327
241.4000	-2.07817	322.708
241.2000	-2.17536	323.095
241.0000	-2.27555	323.488
240.8000	-2.38225	323.887
240.6000	-2.51223	324.287
240.4000	-2.63439	324.698
240.2000	-2.73315	325.116
240.0000	-2.85105	325.543
239.8000	-2.95811	325.977
239.6000	-3.0867	326.418
239.4000	-3.219	326.868
239.2000	-3.35268	327.328
239.0000	-3.49808	327.795
238.8000	-3.66516	328.269
238.6000	-3.84773	328.756
238.4000	-3.99067	329.25
238.2000	-4.12953	329.758
238.0000	-4.3005	330.271
237.8000	-4.48185	330.794
237.6000	-4.65468	331.329
237.4000	-4.8109	331.868
237.2000	-5.00051	332.425
237.0000	-5.22547	332.988
236.8000	-5.44919	333.567
236.6000	-5.62854	334.157
236.4000	-5.81253	334.758
236.2000	-6.01816	335.369
236.0000	-6.21177	335.99
235.8000	-6.42272	336.624
235.6000	-6.63263	337.27
235.4000	-6.84484	337.926
235.2000	-7.06312	338.592
235.0000	-7.27787	339.273
234.8000	-7.52544	339.963
234.6000	-7.76182	340.671
234.4000	-8.0024	341.39
234.2000	-8.21652	342.12
234.0000	-8.43725	342.868
233.8000	-8.67379	343.627
233.6000	-8.91006	344.396
233.4000	-9.17449	345.175
233.2000	-9.40704	345.966
233.0000	-9.65687	346.762
232.8000	-9.91149	347.571
232.6000	-10.1752	348.387
232.4000	-10.4236	349.214
232.2000	-10.6732	350.052
232.0000	-10.8778	350.897
231.8000	-11.1001	351.755
231.6000	-11.3455	352.619
231.4000	-11.5586	353.497
231.2000	-11.7808	354.38
231.0000	-12.0306	355.277
230.8000	-12.2858	356.173
230.6000	-12.5207	357.077
230.4000	-12.7256	357.989
230.2000	-12.9956	358.894
230.0000	-13.2771	359.81
229.8000	-13.5524	360.725
229.6000	-13.8245	361.643
229.4000	-14.105	362.566
229.2000	-14.3836	363.482
229.0000	-14.671	364.408
228.8000	-14.9549	365.33
228.6000	-15.1923	366.26
228.4000	-15.4181	367.187
228.2000	-15.6684	368.109
228.0000	-15.8924	369.033
227.8000	-16.1133	369.955
227.6000	-16.4053	370.872
227.4000	-16.6297	371.79
227.2000	-16.8634	372.703
227.0000	-17.113	373.62
226.8000	-17.3038	374.536
226.6000	-17.6113	375.444
226.4000	-17.8736	376.357
226.2000	-18.1275	377.263
226.0000	-18.3379	378.171
225.8000	-18.5058	379.081
225.6000	-18.6294	379.981
225.4000	-18.7787	380.888
225.2000	-19.0047	381.785
225.0000	-19.2445	382.683
224.8000	-19.5143	383.581
224.6000	-19.7224	384.469
224.4000	-19.8938	385.363
224.2000	-20.0884	386.259
224.0000	-20.2414	387.152
223.8000	-20.4511	388.046
223.6000	-20.6361	388.945
223.4000	-20.7426	389.842
223.2000	-20.8902	390.747
223.0000	-20.9733	391.648
222.8000	-21.0431	392.551
222.6000	-21.1019	393.462
222.4000	-21.1817	394.372
222.2000	-21.1602	395.283
222.0000	-21.151	396.192
221.8000	-21.2595	397.109
221.6000	-21.2917	398.026
221.4000	-21.3206	398.947
221.2000	-21.3863	399.868
221.0000	-21.4148	400.791
220.8000	-21.4698	401.718
220.6000	-21.5837	402.645
220.4000	-21.6266	403.576
220.2000	-21.6568	404.511
220.0000	-21.6368	405.449
219.8000	-21.6105	406.392
219.6000	-21.5533	407.34
219.4000	-21.6153	408.294
219.2000	-21.6316	409.254
219.0000	-21.7057	410.218
218.8000	-21.7149	411.185
218.6000	-21.7542	412.158
218.4000	-21.7389	413.134
218.2000	-21.6717	414.115
218.0000	-21.6653	415.108
217.8000	-21.6214	416.101
217.6000	-21.5924	417.103
217.4000	-21.56	418.112
217.2000	-21.5628	419.13
217.0000	-21.5089	420.156
216.8000	-21.5308	421.186
216.6000	-21.5078	422.229
216.4000	-21.583	423.282
216.2000	-21.6473	424.34
216.0000	-21.7358	425.411
215.8000	-21.7819	426.498
215.6000	-21.8017	427.592
215.4000	-21.8386	428.704
215.2000	-21.9177	429.828
215.0000	-22.0283	430.966
214.8000	-22.1411	432.124
214.6000	-22.1592	433.293
214.4000	-22.1328	434.483
214.2000	-22.1014	435.692
214.0000	-21.9893	436.917
213.8000	-21.9978	438.163
213.6000	-22.0536	439.428
213.4000	-22.0479	440.713
213.2000	-22.1136	442.023
213.0000	-22.2626	443.348
212.8000	-22.31	444.698
212.6000	-22.3835	446.07
212.4000	-22.4872	447.469
212.2000	-22.7535	448.886
212.0000	-22.9545	450.337
211.8000	-23.0656	451.811
211.6000	-23.1408	453.316
211.4000	-23.1861	454.845
211.2000	-23.2883	456.403
211.0000	-23.444	457.994
210.8000	-23.5009	459.61
210.6000	-23.5459	461.257
210.4000	-23.6623	462.942
210.2000	-23.7062	464.655
210.0000	-23.6758	466.408
209.8000	-23.6637	468.194
209.6000	-23.7047	470.017
209.4000	-23.787	471.877
209.2000	-23.757	473.774
209.0000	-23.8272	475.712
208.8000	-23.9017	477.689
208.6000	-23.9076	479.712
208.4000	-23.8131	481.774
208.2000	-23.7269	483.878
208.0000	-23.5917	486.035
207.8000	-23.5129	488.24
207.6000	-23.2953	490.499
207.4000	-23.2193	492.814
207.2000	-23.145	495.182
207.0000	-22.9433	497.606
206.8000	-22.7766	500.093
206.6000	-22.5063	502.647
206.4000	-22.0496	505.27
206.2000	-21.6058	507.964
206.0000	-21.1885	510.729
205.8000	-20.6579	513.566
205.6000	-20.1134	516.495
205.4000	-19.3772	519.497
205.2000	-18.5803	522.591
205.0000	-18.2134	525.774
204.8000	-17.5541	529.062
204.6000	-16.6906	532.448
204.4000	-15.9561	535.938
204.2000	-15.3704	539.536
204.0000	-14.8138	543.251
203.8000	-13.7616	547.077
203.6000	-13.0737	551.02
203.4000	-12.3991	555.079
203.2000	-11.8178	559.263
203.0000	-11.2252	563.56
202.8000	-10.2904	567.981
202.6000	-9.43739	572.507
202.4000	-8.51884	577.138
202.2000	-7.86021	581.863
202.0000	-6.89673	586.669
201.8000	-6.32494	591.55
201.6000	-5.36448	596.491
201.4000	-4.60892	601.47
201.2000	-3.96147	606.472
201.0000	-3.53099	611.475
200.8000	-3.51114	616.464
200.6000	-3.00466	621.419
200.4000	-2.57411	626.33
200.2000	-2.2943	631.182
200.0000	-1.57735	635.958
199.8000	-1.45668	640.642
199.6000	-0.80659	645.225
199.4000	-0.608415	649.699
199.2000	-0.154725	654.061
199.0000	0.216787	658.291
198.8000	0.760722	662.392
198.6000	1.46911	666.35
198.4000	2.34095	670.165
198.2000	3.13474	673.819
198.0000	3.56332	677.314
197.8000	3.77492	680.643
197.6000	3.53518	683.801
197.4000	3.42638	686.778
197.2000	2.71747	689.575
197.0000	2.57561	692.188
196.8000	2.78245	694.611
196.6000	2.44724	696.838
196.4000	2.62715	698.874
196.2000	3.22807	700.717
196.0000	2.97298	702.37
195.8000	2.65428	703.834
195.6000	2.36567	705.12
195.4000	2.1241	706.236
195.2000	1.95794	707.19
195.0000	1.65268	707.993

##### Extended Information
[Comments]
Sample name	kx8_d2_melt
Comment
User
Division
Company	EPFL

[Detailed Information]
Creation date	01.09.2017 13:23

Data array type	Linear data array * 2
Horizontal axis	Wavelength [nm]
Vertical axis(1)	CD [mdeg]
Vertical axis(2)	HT [V]
Start	250 nm
End	195 nm
Data interval	0.2 nm
Data points	276     

[Measurement Information]
Instrument Name	CD-Spectrometer
Model Name	J-815
Serial No.	A007961168

Accessory	PFD-425S
Accessory S/N	A001061180
  Temperature	20.00 C
  Control Sonsor	Holder
  Monitor Sensor	Holder
  Cell Length	10 mm

Photometric Mode	CD, HT
Measure Range	250 - 195 nm
Data pitch	0.2 nm
Sensitivity	Standard
D.I.T.	8 sec
Bandwidth	1.00 nm
Start Mode	Immediately
Scanning Speed	50 nm/min
Baseline Correction	None
Shutter Control	Auto
PMT Voltage	Auto
Accumulations	2
End Temperature.	20 C
Start Temperature.	90 C
Temperature. Interval	2 C
Ramp Rate	2 C/min

