TITLE	kx8_d2_melt
DATA TYPE	
ORIGIN	JASCO
OWNER	
DATE	17/09/01
TIME	13:23:13
SPECTROMETER/DATA SYSTEM	
LOCALE	2055
RESOLUTION	
DELTAX	-0.2
XUNITS	NANOMETERS
YUNITS	CD [mdeg]
Y2UNITS	HT [V]
FIRSTX	  250.0000
LASTX	  195.0000
NPOINTS	     276
FIRSTY	    -0.06724
MAXY	     1.66097
MINY	   -27.34447
XYDATA
250.0000	-0.0672428	308.989
249.8000	-0.0767809	309.259
249.6000	-0.0847393	309.529
249.4000	-0.106056	309.802
249.2000	-0.105302	310.076
249.0000	-0.122517	310.349
248.8000	-0.126534	310.625
248.6000	-0.120665	310.904
248.4000	-0.12003	311.181
248.2000	-0.107997	311.46
248.0000	-0.0758562	311.74
247.8000	-0.08818	312.022
247.6000	-0.124359	312.303
247.4000	-0.151887	312.586
247.2000	-0.203256	312.873
247.0000	-0.247792	313.159
246.8000	-0.307387	313.445
246.6000	-0.343517	313.73
246.4000	-0.403482	314.014
246.2000	-0.443493	314.304
246.0000	-0.47866	314.59
245.8000	-0.502397	314.883
245.6000	-0.533372	315.176
245.4000	-0.556863	315.471
245.2000	-0.596535	315.774
245.0000	-0.645798	316.073
244.8000	-0.701701	316.378
244.6000	-0.760645	316.684
244.4000	-0.818245	316.992
244.2000	-0.888375	317.303
244.0000	-0.923899	317.62
243.8000	-0.98818	317.942
243.6000	-1.04666	318.268
243.4000	-1.1183	318.598
243.2000	-1.19811	318.935
243.0000	-1.29496	319.274
242.8000	-1.35812	319.616
242.6000	-1.44185	319.967
242.4000	-1.53718	320.316
242.2000	-1.62717	320.674
242.0000	-1.74076	321.034
241.8000	-1.89408	321.401
241.6000	-2.04237	321.773
241.4000	-2.17307	322.147
241.2000	-2.28795	322.528
241.0000	-2.41005	322.918
240.8000	-2.54005	323.316
240.6000	-2.66146	323.714
240.4000	-2.80332	324.12
240.2000	-2.94346	324.532
240.0000	-3.08771	324.953
239.8000	-3.22172	325.383
239.6000	-3.35214	325.823
239.4000	-3.53119	326.272
239.2000	-3.70124	326.729
239.0000	-3.87853	327.195
238.8000	-4.05661	327.671
238.6000	-4.26206	328.152
238.4000	-4.43956	328.645
238.2000	-4.61953	329.147
238.0000	-4.79771	329.659
237.8000	-4.99376	330.184
237.6000	-5.16642	330.717
237.4000	-5.36187	331.262
237.2000	-5.55242	331.815
237.0000	-5.7844	332.382
236.8000	-6.0116	332.956
236.6000	-6.23139	333.544
236.4000	-6.48654	334.144
236.2000	-6.72831	334.756
236.0000	-6.99486	335.378
235.8000	-7.26201	336.014
235.6000	-7.52807	336.662
235.4000	-7.77681	337.326
235.2000	-7.99476	337.997
235.0000	-8.22143	338.683
234.8000	-8.48694	339.383
234.6000	-8.74989	340.095
234.4000	-8.99135	340.822
234.2000	-9.26399	341.559
234.0000	-9.53749	342.307
233.8000	-9.80848	343.072
233.6000	-10.0881	343.848
233.4000	-10.3742	344.633
233.2000	-10.6735	345.434
233.0000	-10.9745	346.239
232.8000	-11.2587	347.056
232.6000	-11.5445	347.878
232.4000	-11.7994	348.714
232.2000	-12.0783	349.56
232.0000	-12.3437	350.414
231.8000	-12.6379	351.281
231.6000	-12.9533	352.154
231.4000	-13.2776	353.038
231.2000	-13.6125	353.922
231.0000	-13.9228	354.819
230.8000	-14.2244	355.724
230.6000	-14.5116	356.632
230.4000	-14.8046	357.546
230.2000	-15.1099	358.464
230.0000	-15.386	359.382
229.8000	-15.6565	360.302
229.6000	-15.963	361.223
229.4000	-16.2737	362.149
229.2000	-16.5583	363.075
229.0000	-16.8433	363.999
228.8000	-17.1279	364.929
228.6000	-17.4191	365.853
228.4000	-17.7256	366.779
228.2000	-18.0328	367.702
228.0000	-18.2847	368.626
227.8000	-18.5718	369.547
227.6000	-18.8522	370.468
227.4000	-19.1406	371.384
227.2000	-19.4266	372.296
227.0000	-19.6709	373.209
226.8000	-19.9506	374.118
226.6000	-20.1854	375.024
226.4000	-20.4388	375.932
226.2000	-20.7136	376.834
226.0000	-20.9281	377.738
225.8000	-21.1517	378.635
225.6000	-21.3714	379.531
225.4000	-21.6433	380.428
225.2000	-21.8524	381.316
225.0000	-22.0564	382.212
224.8000	-22.2202	383.099
224.6000	-22.3836	383.99
224.4000	-22.5202	384.878
224.2000	-22.7051	385.765
224.0000	-22.9075	386.654
223.8000	-23.0703	387.54
223.6000	-23.1977	388.433
223.4000	-23.4031	389.324
223.2000	-23.5515	390.222
223.0000	-23.6424	391.117
222.8000	-23.7312	392.015
222.6000	-23.8715	392.918
222.4000	-23.9897	393.816
222.2000	-24.1449	394.718
222.0000	-24.2717	395.621
221.8000	-24.3626	396.528
221.6000	-24.3819	397.436
221.4000	-24.4768	398.346
221.2000	-24.5592	399.258
221.0000	-24.5488	400.176
220.8000	-24.5893	401.096
220.6000	-24.6186	402.023
220.4000	-24.6771	402.951
220.2000	-24.7459	403.884
220.0000	-24.8407	404.82
219.8000	-24.9122	405.759
219.6000	-24.9059	406.709
219.4000	-24.9214	407.663
219.2000	-25.0054	408.623
219.0000	-25.0478	409.586
218.8000	-25.0862	410.556
218.6000	-25.0781	411.531
218.4000	-25.0598	412.509
218.2000	-25.1386	413.494
218.0000	-25.1769	414.487
217.8000	-25.2401	415.484
217.6000	-25.2373	416.489
217.4000	-25.3353	417.495
217.2000	-25.393	418.511
217.0000	-25.4881	419.534
216.8000	-25.4467	420.564
216.6000	-25.4625	421.606
216.4000	-25.4961	422.652
216.2000	-25.5238	423.716
216.0000	-25.508	424.782
215.8000	-25.4387	425.87
215.6000	-25.3592	426.962
215.4000	-25.3542	428.075
215.2000	-25.4218	429.196
215.0000	-25.5504	430.336
214.8000	-25.5949	431.487
214.6000	-25.6997	432.655
214.4000	-25.8724	433.84
214.2000	-26.0214	435.035
214.0000	-26.0161	436.252
213.8000	-26.0272	437.486
213.6000	-26.0682	438.739
213.4000	-26.0551	440.013
213.2000	-26.0387	441.305
213.0000	-26.1556	442.617
212.8000	-26.1919	443.948
212.6000	-26.2603	445.304
212.4000	-26.4145	446.68
212.2000	-26.4405	448.082
212.0000	-26.5737	449.507
211.8000	-26.696	450.957
211.6000	-26.7923	452.43
211.4000	-26.8479	453.932
211.2000	-26.9079	455.46
211.0000	-27.102	457.015
210.8000	-27.0609	458.603
210.6000	-27.011	460.219
210.4000	-27.0256	461.863
210.2000	-27.0264	463.542
210.0000	-27.1625	465.246
209.8000	-27.1677	466.983
209.6000	-27.1523	468.752
209.4000	-27.2433	470.556
209.2000	-27.3078	472.389
209.0000	-27.3445	474.258
208.8000	-27.2979	476.163
208.6000	-27.1027	478.102
208.4000	-26.9958	480.081
208.2000	-26.9057	482.102
208.0000	-26.7682	484.161
207.8000	-26.5658	486.269
207.6000	-26.4312	488.418
207.4000	-26.3589	490.613
207.2000	-26.1199	492.861
207.0000	-25.6677	495.157
206.8000	-25.2031	497.506
206.6000	-24.7913	499.909
206.4000	-24.2805	502.367
206.2000	-23.87	504.884
206.0000	-23.4104	507.466
205.8000	-22.8426	510.109
205.6000	-22.2612	512.819
205.4000	-21.6361	515.601
205.2000	-21.1219	518.454
205.0000	-20.5919	521.387
204.8000	-19.8504	524.4
204.6000	-19.2437	527.506
204.4000	-18.5473	530.696
204.2000	-17.9492	533.982
204.0000	-17.2202	537.363
203.8000	-16.3867	540.849
203.6000	-15.5941	544.44
203.4000	-14.6316	548.147
203.2000	-13.8097	551.97
203.0000	-13.1675	555.907
202.8000	-12.0132	559.965
202.6000	-10.9804	564.144
202.4000	-9.84214	568.439
202.2000	-8.70126	572.854
202.0000	-7.67487	577.379
201.8000	-6.75021	582.013
201.6000	-5.5886	586.747
201.4000	-4.7807	591.567
201.2000	-3.76687	596.466
201.0000	-2.74194	601.427
200.8000	-2.10493	606.435
200.6000	-1.90495	611.475
200.4000	-1.78065	616.525
200.2000	-1.75305	621.567
200.0000	-1.88749	626.595
199.8000	-1.81916	631.587
199.6000	-1.75556	636.523
199.4000	-1.41362	641.388
199.2000	-0.946554	646.175
199.0000	-0.313846	650.87
198.8000	0.0616457	655.458
198.6000	0.0719101	659.929
198.4000	0.32355	664.278
198.2000	0.709351	668.496
198.0000	1.08717	672.574
197.8000	1.55611	676.505
197.6000	1.58184	680.285
197.4000	1.66097	683.909
197.2000	1.48295	687.363
197.0000	1.0358	690.649
196.8000	0.833196	693.755
196.6000	0.766219	696.679
196.4000	0.753933	699.422
196.2000	0.174569	701.968
196.0000	-0.102272	704.323
195.8000	-0.0548626	706.491
195.6000	-0.486782	708.463
195.4000	-0.848185	710.248
195.2000	-1.14061	711.839
195.0000	-1.6444	713.246

##### Extended Information
[Comments]
Sample name	kx8_d2_melt
Comment
User
Division
Company	EPFL

[Detailed Information]
Creation date	01.09.2017 13:23

Data array type	Linear data array * 2
Horizontal axis	Wavelength [nm]
Vertical axis(1)	CD [mdeg]
Vertical axis(2)	HT [V]
Start	250 nm
End	195 nm
Data interval	0.2 nm
Data points	276     

[Measurement Information]
Instrument Name	CD-Spectrometer
Model Name	J-815
Serial No.	A007961168

Accessory	PFD-425S
Accessory S/N	A001061180
  Temperature	20.00 C
  Control Sonsor	Holder
  Monitor Sensor	Holder
  Cell Length	10 mm

Photometric Mode	CD, HT
Measure Range	250 - 195 nm
Data pitch	0.2 nm
Sensitivity	Standard
D.I.T.	8 sec
Bandwidth	1.00 nm
Start Mode	Immediately
Scanning Speed	50 nm/min
Baseline Correction	None
Shutter Control	Auto
PMT Voltage	Auto
Accumulations	2
End Temperature.	20 C
Start Temperature.	90 C
Temperature. Interval	2 C
Ramp Rate	2 C/min

