TITLE	kx8_d2_melt
DATA TYPE	
ORIGIN	JASCO
OWNER	
DATE	17/09/01
TIME	13:23:13
SPECTROMETER/DATA SYSTEM	
LOCALE	2055
RESOLUTION	
DELTAX	-0.2
XUNITS	NANOMETERS
YUNITS	CD [mdeg]
Y2UNITS	HT [V]
FIRSTX	  250.0000
LASTX	  195.0000
NPOINTS	     276
FIRSTY	    -0.20525
MAXY	     3.08602
MINY	   -15.99169
XYDATA
250.0000	-0.205252	308.809
249.8000	-0.225566	309.086
249.6000	-0.234576	309.362
249.4000	-0.260769	309.638
249.2000	-0.27952	309.914
249.0000	-0.311646	310.193
248.8000	-0.335352	310.469
248.6000	-0.343894	310.751
248.4000	-0.360266	311.037
248.2000	-0.378315	311.316
248.0000	-0.379287	311.603
247.8000	-0.391903	311.887
247.6000	-0.386526	312.172
247.4000	-0.372934	312.456
247.2000	-0.399671	312.74
247.0000	-0.452363	313.025
246.8000	-0.468571	313.316
246.6000	-0.482855	313.605
246.4000	-0.49954	313.897
246.2000	-0.52853	314.193
246.0000	-0.558165	314.485
245.8000	-0.586217	314.781
245.6000	-0.61959	315.077
245.4000	-0.6539	315.378
245.2000	-0.699636	315.681
245.0000	-0.735907	315.985
244.8000	-0.756688	316.297
244.6000	-0.77725	316.604
244.4000	-0.814848	316.92
244.2000	-0.847041	317.239
244.0000	-0.875138	317.561
243.8000	-0.910788	317.889
243.6000	-0.960365	318.214
243.4000	-0.989238	318.547
243.2000	-1.05257	318.881
243.0000	-1.10119	319.22
242.8000	-1.12157	319.565
242.6000	-1.17006	319.912
242.4000	-1.19768	320.266
242.2000	-1.23526	320.623
242.0000	-1.29789	320.985
241.8000	-1.36756	321.352
241.6000	-1.41846	321.726
241.4000	-1.45685	322.101
241.2000	-1.50687	322.482
241.0000	-1.56698	322.871
240.8000	-1.66284	323.267
240.6000	-1.73098	323.668
240.4000	-1.78977	324.08
240.2000	-1.85695	324.491
240.0000	-1.94736	324.911
239.8000	-2.00954	325.336
239.6000	-2.08155	325.77
239.4000	-2.16557	326.212
239.2000	-2.25355	326.664
239.0000	-2.34906	327.124
238.8000	-2.41847	327.59
238.6000	-2.48099	328.067
238.4000	-2.55485	328.549
238.2000	-2.65816	329.043
238.0000	-2.76437	329.542
237.8000	-2.87258	330.051
237.6000	-2.97657	330.571
237.4000	-3.09904	331.097
237.2000	-3.22723	331.635
237.0000	-3.32216	332.184
236.8000	-3.4572	332.745
236.6000	-3.5812	333.312
236.4000	-3.67561	333.891
236.2000	-3.77407	334.483
236.0000	-3.88715	335.081
235.8000	-4.01963	335.693
235.6000	-4.14671	336.314
235.4000	-4.25368	336.945
235.2000	-4.33935	337.587
235.0000	-4.4471	338.239
234.8000	-4.57835	338.903
234.6000	-4.72779	339.581
234.4000	-4.82323	340.269
234.2000	-4.93122	340.97
234.0000	-5.04151	341.682
233.8000	-5.15595	342.406
233.6000	-5.30693	343.146
233.4000	-5.45113	343.894
233.2000	-5.58628	344.654
233.0000	-5.74185	345.419
232.8000	-5.84007	346.196
232.6000	-5.94976	346.979
232.4000	-6.0557	347.78
232.2000	-6.18903	348.59
232.0000	-6.37612	349.409
231.8000	-6.49438	350.243
231.6000	-6.5863	351.084
231.4000	-6.69549	351.937
231.2000	-6.81526	352.803
231.0000	-6.96612	353.673
230.8000	-7.09482	354.55
230.6000	-7.22011	355.437
230.4000	-7.35916	356.33
230.2000	-7.46616	357.231
230.0000	-7.56043	358.135
229.8000	-7.69478	359.047
229.6000	-7.81919	359.962
229.4000	-7.92134	360.882
229.2000	-7.98405	361.803
229.0000	-8.10023	362.734
228.8000	-8.20911	363.664
228.6000	-8.36751	364.597
228.4000	-8.50075	365.533
228.2000	-8.62545	366.471
228.0000	-8.75015	367.414
227.8000	-8.89636	368.354
227.6000	-9.00434	369.3
227.4000	-9.07821	370.242
227.2000	-9.16261	371.185
227.0000	-9.25495	372.131
226.8000	-9.30217	373.073
226.6000	-9.33409	374.019
226.4000	-9.3959	374.966
226.2000	-9.48253	375.913
226.0000	-9.59834	376.861
225.8000	-9.72182	377.809
225.6000	-9.80118	378.757
225.4000	-9.84922	379.699
225.2000	-9.97295	380.642
225.0000	-10.1739	381.581
224.8000	-10.2958	382.519
224.6000	-10.4229	383.457
224.4000	-10.4584	384.396
224.2000	-10.4795	385.331
224.0000	-10.4996	386.273
223.8000	-10.4997	387.21
223.6000	-10.5449	388.148
223.4000	-10.6161	389.089
223.2000	-10.657	390.027
223.0000	-10.7509	390.972
222.8000	-10.8562	391.911
222.6000	-10.9325	392.859
222.4000	-10.9847	393.808
222.2000	-11.0453	394.754
222.0000	-11.1133	395.705
221.8000	-11.1667	396.657
221.6000	-11.2259	397.608
221.4000	-11.2194	398.563
221.2000	-11.1779	399.518
221.0000	-11.2253	400.476
220.8000	-11.2839	401.436
220.6000	-11.2699	402.399
220.4000	-11.3262	403.364
220.2000	-11.3594	404.327
220.0000	-11.4566	405.295
219.8000	-11.4762	406.266
219.6000	-11.5016	407.244
219.4000	-11.5072	408.229
219.2000	-11.5646	409.211
219.0000	-11.6026	410.203
218.8000	-11.6511	411.194
218.6000	-11.6179	412.192
218.4000	-11.5046	413.204
218.2000	-11.4469	414.212
218.0000	-11.4548	415.232
217.8000	-11.4119	416.262
217.6000	-11.4554	417.295
217.4000	-11.463	418.341
217.2000	-11.549	419.392
217.0000	-11.6253	420.45
216.8000	-11.6924	421.523
216.6000	-11.7306	422.603
216.4000	-11.7781	423.697
216.2000	-11.8165	424.804
216.0000	-11.8614	425.919
215.8000	-11.9783	427.056
215.6000	-12.0025	428.203
215.4000	-12.0071	429.37
215.2000	-12.0836	430.556
215.0000	-12.1477	431.757
214.8000	-12.2589	432.983
214.6000	-12.373	434.224
214.4000	-12.4472	435.487
214.2000	-12.5376	436.776
214.0000	-12.7492	438.089
213.8000	-12.8818	439.43
213.6000	-12.9726	440.799
213.4000	-13.0308	442.194
213.2000	-13.1485	443.616
213.0000	-13.2618	445.068
212.8000	-13.3534	446.552
212.6000	-13.411	448.069
212.4000	-13.5382	449.62
212.2000	-13.6109	451.21
212.0000	-13.5523	452.841
211.8000	-13.7091	454.507
211.6000	-13.9477	456.219
211.4000	-14.0807	457.971
211.2000	-14.4055	459.767
211.0000	-14.5842	461.619
210.8000	-14.7362	463.511
210.6000	-14.8713	465.472
210.4000	-14.9392	467.481
210.2000	-14.9242	469.55
210.0000	-15.0486	471.682
209.8000	-15.0629	473.877
209.6000	-15.093	476.138
209.4000	-15.218	478.469
209.2000	-15.3125	480.868
209.0000	-15.4128	483.35
208.8000	-15.6483	485.907
208.6000	-15.7083	488.55
208.4000	-15.8181	491.282
208.2000	-15.8178	494.105
208.0000	-15.914	497.024
207.8000	-15.9795	500.047
207.6000	-15.9342	503.175
207.4000	-15.947	506.419
207.2000	-15.9917	509.772
207.0000	-15.7902	513.247
206.8000	-15.8436	516.846
206.6000	-15.7369	520.576
206.4000	-15.7724	524.435
206.2000	-15.5934	528.437
206.0000	-15.4214	532.579
205.8000	-15.0827	536.865
205.6000	-14.673	541.296
205.4000	-14.8342	545.869
205.2000	-14.8737	550.589
205.0000	-14.847	555.448
204.8000	-14.5183	560.448
204.6000	-14.0364	565.571
204.4000	-13.7153	570.806
204.2000	-13.3952	576.144
204.0000	-13.304	581.555
203.8000	-12.8278	587.037
203.6000	-12.5214	592.56
203.4000	-11.8139	598.105
203.2000	-11.3217	603.656
203.0000	-10.7368	609.18
202.8000	-10.3333	614.665
202.6000	-9.91419	620.094
202.4000	-9.05263	625.444
202.2000	-8.29677	630.703
202.0000	-7.78318	635.857
201.8000	-7.37154	640.894
201.6000	-6.41443	645.807
201.4000	-5.81388	650.583
201.2000	-5.12959	655.211
201.0000	-4.60231	659.689
200.8000	-3.7798	664.003
200.6000	-3.37762	668.151
200.4000	-3.00124	672.121
200.2000	-2.80071	675.914
200.0000	-2.35992	679.522
199.8000	-2.05699	682.939
199.6000	-1.65864	686.153
199.4000	-1.64686	689.162
199.2000	-1.81551	691.962
199.0000	-2.30904	694.549
198.8000	-1.51269	696.924
198.6000	-0.839975	699.08
198.4000	-0.00556526	701.023
198.2000	0.927596	702.746
198.0000	1.17343	704.259
197.8000	1.70064	705.573
197.6000	2.19231	706.695
197.4000	2.98396	707.643
197.2000	2.88417	708.422
197.0000	3.08602	709.059
196.8000	2.58438	709.566
196.6000	2.45634	709.962
196.4000	2.4231	710.267
196.2000	2.5943	710.495
196.0000	3.00748	710.663
195.8000	2.46215	710.782
195.6000	1.83892	710.865
195.4000	1.33361	710.919
195.2000	1.35567	710.955
195.0000	1.01785	710.977

##### Extended Information
[Comments]
Sample name	kx8_d2_melt
Comment
User
Division
Company	EPFL

[Detailed Information]
Creation date	01.09.2017 13:23

Data array type	Linear data array * 2
Horizontal axis	Wavelength [nm]
Vertical axis(1)	CD [mdeg]
Vertical axis(2)	HT [V]
Start	250 nm
End	195 nm
Data interval	0.2 nm
Data points	276     

[Measurement Information]
Instrument Name	CD-Spectrometer
Model Name	J-815
Serial No.	A007961168

Accessory	PFD-425S
Accessory S/N	A001061180
  Temperature	20.00 C
  Control Sonsor	Holder
  Monitor Sensor	Holder
  Cell Length	10 mm

Photometric Mode	CD, HT
Measure Range	250 - 195 nm
Data pitch	0.2 nm
Sensitivity	Standard
D.I.T.	8 sec
Bandwidth	1.00 nm
Start Mode	Immediately
Scanning Speed	50 nm/min
Baseline Correction	None
Shutter Control	Auto
PMT Voltage	Auto
Accumulations	2
End Temperature.	20 C
Start Temperature.	90 C
Temperature. Interval	2 C
Ramp Rate	2 C/min

