TITLE	kx8_d2_melt
DATA TYPE	
ORIGIN	JASCO
OWNER	
DATE	17/09/01
TIME	13:23:13
SPECTROMETER/DATA SYSTEM	
LOCALE	2055
RESOLUTION	
DELTAX	-0.2
XUNITS	NANOMETERS
YUNITS	CD [mdeg]
Y2UNITS	HT [V]
FIRSTX	  250.0000
LASTX	  195.0000
NPOINTS	     276
FIRSTY	    -0.18301
MAXY	     0.34518
MINY	   -16.11097
XYDATA
250.0000	-0.183012	309.357
249.8000	-0.199191	309.632
249.6000	-0.221743	309.904
249.4000	-0.247112	310.181
249.2000	-0.243395	310.455
249.0000	-0.237188	310.733
248.8000	-0.27081	311.014
248.6000	-0.285752	311.295
248.4000	-0.311393	311.571
248.2000	-0.326846	311.852
248.0000	-0.324205	312.135
247.8000	-0.341862	312.417
247.6000	-0.378101	312.7
247.4000	-0.39683	312.985
247.2000	-0.425209	313.271
247.0000	-0.441003	313.557
246.8000	-0.449565	313.845
246.6000	-0.476726	314.132
246.4000	-0.51634	314.424
246.2000	-0.555856	314.718
246.0000	-0.601005	315.012
245.8000	-0.607723	315.307
245.6000	-0.616936	315.604
245.4000	-0.64549	315.902
245.2000	-0.68865	316.204
245.0000	-0.725405	316.507
244.8000	-0.767242	316.817
244.6000	-0.803671	317.128
244.4000	-0.819278	317.441
244.2000	-0.842511	317.756
244.0000	-0.886072	318.073
243.8000	-0.953372	318.398
243.6000	-1.01074	318.726
243.4000	-1.0802	319.061
243.2000	-1.13196	319.4
243.0000	-1.17441	319.742
242.8000	-1.25921	320.085
242.6000	-1.32105	320.438
242.4000	-1.4133	320.79
242.2000	-1.4633	321.146
242.0000	-1.50394	321.509
241.8000	-1.56361	321.875
241.6000	-1.62594	322.245
241.4000	-1.67632	322.62
241.2000	-1.72947	323.006
241.0000	-1.78753	323.395
240.8000	-1.82381	323.792
240.6000	-1.89109	324.193
240.4000	-1.96133	324.602
240.2000	-2.02523	325.017
240.0000	-2.09653	325.437
239.8000	-2.13458	325.869
239.6000	-2.18218	326.303
239.4000	-2.22925	326.747
239.2000	-2.32773	327.194
239.0000	-2.4476	327.655
238.8000	-2.53479	328.127
238.6000	-2.59998	328.604
238.4000	-2.68128	329.09
238.2000	-2.75193	329.58
238.0000	-2.86285	330.081
237.8000	-2.97255	330.59
237.6000	-3.10915	331.11
237.4000	-3.21937	331.641
237.2000	-3.3187	332.179
237.0000	-3.38254	332.73
236.8000	-3.45755	333.285
236.6000	-3.53333	333.852
236.4000	-3.61956	334.431
236.2000	-3.67316	335.02
236.0000	-3.72198	335.619
235.8000	-3.81913	336.229
235.6000	-3.92323	336.846
235.4000	-4.01311	337.479
235.2000	-4.11719	338.122
235.0000	-4.20058	338.777
234.8000	-4.28566	339.447
234.6000	-4.41004	340.121
234.4000	-4.536	340.811
234.2000	-4.64145	341.512
234.0000	-4.76022	342.227
233.8000	-4.86371	342.952
233.6000	-4.99668	343.684
233.4000	-5.09328	344.434
233.2000	-5.19717	345.185
233.0000	-5.3519	345.952
232.8000	-5.48038	346.725
232.6000	-5.59618	347.514
232.4000	-5.6562	348.313
232.2000	-5.78306	349.118
232.0000	-5.9256	349.934
231.8000	-6.04125	350.768
231.6000	-6.13055	351.609
231.4000	-6.19897	352.466
231.2000	-6.28535	353.328
231.0000	-6.37871	354.202
230.8000	-6.48627	355.082
230.6000	-6.58248	355.969
230.4000	-6.69799	356.869
230.2000	-6.80897	357.773
230.0000	-6.94522	358.683
229.8000	-7.09214	359.595
229.6000	-7.20764	360.514
229.4000	-7.32562	361.434
229.2000	-7.44785	362.36
229.0000	-7.54994	363.296
228.8000	-7.63094	364.23
228.6000	-7.75593	365.171
228.4000	-7.85002	366.111
228.2000	-7.97198	367.055
228.0000	-8.05385	367.999
227.8000	-8.13782	368.943
227.6000	-8.26511	369.89
227.4000	-8.37248	370.835
227.2000	-8.49942	371.782
227.0000	-8.587	372.733
226.8000	-8.6947	373.683
226.6000	-8.83136	374.634
226.4000	-8.92589	375.587
226.2000	-9.01628	376.536
226.0000	-9.16593	377.487
225.8000	-9.29207	378.437
225.6000	-9.39886	379.389
225.4000	-9.47676	380.345
225.2000	-9.54116	381.291
225.0000	-9.65196	382.241
224.8000	-9.80597	383.184
224.6000	-9.90537	384.126
224.4000	-9.95827	385.07
224.2000	-9.98695	386.014
224.0000	-10.0472	386.956
223.8000	-10.0522	387.903
223.6000	-10.1063	388.846
223.4000	-10.1355	389.787
223.2000	-10.1372	390.734
223.0000	-10.137	391.684
222.8000	-10.1728	392.638
222.6000	-10.2022	393.594
222.4000	-10.2475	394.546
222.2000	-10.3129	395.502
222.0000	-10.3651	396.456
221.8000	-10.4152	397.415
221.6000	-10.503	398.374
221.4000	-10.6088	399.338
221.2000	-10.6376	400.299
221.0000	-10.6257	401.268
220.8000	-10.626	402.237
220.6000	-10.6274	403.204
220.4000	-10.5971	404.174
220.2000	-10.5955	405.148
220.0000	-10.5583	406.128
219.8000	-10.5392	407.108
219.6000	-10.5444	408.102
219.4000	-10.5011	409.094
219.2000	-10.4533	410.092
219.0000	-10.4533	411.088
218.8000	-10.4245	412.09
218.6000	-10.4365	413.101
218.4000	-10.446	414.113
218.2000	-10.404	415.132
218.0000	-10.3864	416.165
217.8000	-10.3901	417.198
217.6000	-10.3697	418.242
217.4000	-10.3533	419.296
217.2000	-10.445	420.352
217.0000	-10.4477	421.425
216.8000	-10.5219	422.506
216.6000	-10.5203	423.596
216.4000	-10.5844	424.703
216.2000	-10.6822	425.814
216.0000	-10.7639	426.945
215.8000	-10.7397	428.09
215.6000	-10.708	429.253
215.4000	-10.7267	430.429
215.2000	-10.7776	431.625
215.0000	-10.864	432.841
214.8000	-10.8691	434.083
214.6000	-10.9068	435.345
214.4000	-10.8838	436.629
214.2000	-10.9823	437.944
214.0000	-10.9751	439.283
213.8000	-11.0489	440.65
213.6000	-11.2367	442.042
213.4000	-11.3947	443.461
213.2000	-11.621	444.911
213.0000	-11.8083	446.387
212.8000	-12.0484	447.904
212.6000	-12.2503	449.455
212.4000	-12.3537	451.046
212.2000	-12.5086	452.678
212.0000	-12.5751	454.35
211.8000	-12.61	456.07
211.6000	-12.735	457.831
211.4000	-12.8628	459.645
211.2000	-13.0249	461.513
211.0000	-13.1255	463.427
210.8000	-13.3604	465.4
210.6000	-13.5191	467.432
210.4000	-13.7773	469.519
210.2000	-13.9532	471.672
210.0000	-14.1909	473.895
209.8000	-14.2878	476.185
209.6000	-14.3545	478.551
209.4000	-14.4638	480.993
209.2000	-14.5757	483.513
209.0000	-14.6762	486.117
208.8000	-14.8177	488.812
208.6000	-15.0631	491.601
208.4000	-15.2765	494.488
208.2000	-15.3464	497.476
208.0000	-15.5339	500.57
207.8000	-15.8967	503.767
207.6000	-16.111	507.088
207.4000	-16.108	510.534
207.2000	-16.065	514.105
207.0000	-15.9337	517.816
206.8000	-16.0757	521.658
206.6000	-15.8818	525.646
206.4000	-15.7975	529.775
206.2000	-15.7092	534.049
206.0000	-15.1809	538.476
205.8000	-14.7325	543.057
205.6000	-14.296	547.787
205.4000	-13.9958	552.665
205.2000	-13.7074	557.685
205.0000	-13.4551	562.844
204.8000	-13.1268	568.135
204.6000	-12.7399	573.533
204.4000	-12.5897	579.032
204.2000	-12.3726	584.612
204.0000	-11.9964	590.253
203.8000	-11.7764	595.935
203.6000	-11.2288	601.63
203.4000	-10.4778	607.323
203.2000	-10.3185	612.987
203.0000	-10.062	618.6
202.8000	-9.45478	624.149
202.6000	-8.90993	629.611
202.4000	-8.77061	634.977
202.2000	-8.76148	640.227
202.0000	-8.70729	645.355
201.8000	-8.62801	650.348
201.6000	-8.19121	655.2
201.4000	-7.60723	659.902
201.2000	-6.81734	664.448
201.0000	-6.15381	668.825
200.8000	-5.69731	673.024
200.6000	-5.48337	677.041
200.4000	-5.34283	680.87
200.2000	-4.38702	684.51
200.0000	-3.99469	687.948
199.8000	-3.79843	691.182
199.6000	-3.66774	694.203
199.4000	-3.79292	697.008
199.2000	-4.10529	699.591
199.0000	-4.54543	701.945
198.8000	-4.36288	704.076
198.6000	-4.48197	705.988
198.4000	-4.03957	707.682
198.2000	-4.01789	709.155
198.0000	-3.79161	710.427
197.8000	-3.44223	711.509
197.6000	-3.41242	712.411
197.4000	-3.07734	713.15
197.2000	-2.73051	713.743
197.0000	-2.44283	714.215
196.8000	-2.69879	714.58
196.6000	-2.21218	714.856
196.4000	-1.84607	715.063
196.2000	-1.90186	715.21
196.0000	-2.3828	715.313
195.8000	-1.72906	715.385
195.6000	-1.20361	715.434
195.4000	-0.818339	715.466
195.2000	-0.20906	715.486
195.0000	0.34518	715.497

##### Extended Information
[Comments]
Sample name	kx8_d2_melt
Comment
User
Division
Company	EPFL

[Detailed Information]
Creation date	01.09.2017 13:23

Data array type	Linear data array * 2
Horizontal axis	Wavelength [nm]
Vertical axis(1)	CD [mdeg]
Vertical axis(2)	HT [V]
Start	250 nm
End	195 nm
Data interval	0.2 nm
Data points	276     

[Measurement Information]
Instrument Name	CD-Spectrometer
Model Name	J-815
Serial No.	A007961168

Accessory	PFD-425S
Accessory S/N	A001061180
  Temperature	20.00 C
  Control Sonsor	Holder
  Monitor Sensor	Holder
  Cell Length	10 mm

Photometric Mode	CD, HT
Measure Range	250 - 195 nm
Data pitch	0.2 nm
Sensitivity	Standard
D.I.T.	8 sec
Bandwidth	1.00 nm
Start Mode	Immediately
Scanning Speed	50 nm/min
Baseline Correction	None
Shutter Control	Auto
PMT Voltage	Auto
Accumulations	2
End Temperature.	20 C
Start Temperature.	90 C
Temperature. Interval	2 C
Ramp Rate	2 C/min

