TITLE	kx8_d2_melt
DATA TYPE	
ORIGIN	JASCO
OWNER	
DATE	17/09/01
TIME	13:23:13
SPECTROMETER/DATA SYSTEM	
LOCALE	2055
RESOLUTION	
DELTAX	-0.2
XUNITS	NANOMETERS
YUNITS	CD [mdeg]
Y2UNITS	HT [V]
FIRSTX	  250.0000
LASTX	  195.0000
NPOINTS	     276
FIRSTY	    -0.16333
MAXY	     2.33019
MINY	   -18.41712
XYDATA
250.0000	-0.163327	308.828
249.8000	-0.154736	309.097
249.6000	-0.148251	309.37
249.4000	-0.157999	309.647
249.2000	-0.150534	309.922
249.0000	-0.149811	310.202
248.8000	-0.185849	310.48
248.6000	-0.192432	310.756
248.4000	-0.215023	311.036
248.2000	-0.233785	311.318
248.0000	-0.249885	311.597
247.8000	-0.294143	311.88
247.6000	-0.331815	312.159
247.4000	-0.34481	312.446
247.2000	-0.340961	312.731
247.0000	-0.315545	313.018
246.8000	-0.304391	313.305
246.6000	-0.321507	313.592
246.4000	-0.339879	313.88
246.2000	-0.357753	314.174
246.0000	-0.374475	314.465
245.8000	-0.407437	314.758
245.6000	-0.434653	315.051
245.4000	-0.466391	315.345
245.2000	-0.506391	315.648
245.0000	-0.544609	315.952
244.8000	-0.576118	316.259
244.6000	-0.631133	316.569
244.4000	-0.687523	316.883
244.2000	-0.732999	317.201
244.0000	-0.775829	317.521
243.8000	-0.851352	317.845
243.6000	-0.910465	318.175
243.4000	-0.984558	318.509
243.2000	-1.04611	318.848
243.0000	-1.12588	319.186
242.8000	-1.21997	319.531
242.6000	-1.28011	319.879
242.4000	-1.36256	320.229
242.2000	-1.41879	320.588
242.0000	-1.48425	320.953
241.8000	-1.55277	321.32
241.6000	-1.60078	321.695
241.4000	-1.67902	322.067
241.2000	-1.72478	322.451
241.0000	-1.79047	322.845
240.8000	-1.87079	323.24
240.6000	-1.97065	323.642
240.4000	-2.08871	324.05
240.2000	-2.18046	324.466
240.0000	-2.24394	324.889
239.8000	-2.34644	325.318
239.6000	-2.47282	325.753
239.4000	-2.58612	326.199
239.2000	-2.69366	326.648
239.0000	-2.81488	327.113
238.8000	-2.93208	327.583
238.6000	-3.04838	328.059
238.4000	-3.15447	328.548
238.2000	-3.26369	329.043
238.0000	-3.37936	329.55
237.8000	-3.50391	330.067
237.6000	-3.62175	330.591
237.4000	-3.75699	331.127
237.2000	-3.87784	331.672
237.0000	-4.05026	332.227
236.8000	-4.22077	332.791
236.6000	-4.35876	333.365
236.4000	-4.47102	333.952
236.2000	-4.62499	334.548
236.0000	-4.7705	335.158
235.8000	-4.94729	335.777
235.6000	-5.10781	336.407
235.4000	-5.25359	337.05
235.2000	-5.41105	337.702
235.0000	-5.56096	338.368
234.8000	-5.71635	339.046
234.6000	-5.86659	339.735
234.4000	-6.02388	340.44
234.2000	-6.19096	341.152
234.0000	-6.36666	341.877
233.8000	-6.51583	342.616
233.6000	-6.71998	343.364
233.4000	-6.94437	344.127
233.2000	-7.11373	344.897
233.0000	-7.27704	345.678
232.8000	-7.46489	346.468
232.6000	-7.65731	347.272
232.4000	-7.82405	348.083
232.2000	-7.98293	348.909
232.0000	-8.18918	349.741
231.8000	-8.3797	350.585
231.6000	-8.59231	351.436
231.4000	-8.8094	352.296
231.2000	-8.99335	353.164
231.0000	-9.2145	354.035
230.8000	-9.42527	354.917
230.6000	-9.55924	355.806
230.4000	-9.67114	356.698
230.2000	-9.81456	357.599
230.0000	-9.97234	358.505
229.8000	-10.1987	359.412
229.6000	-10.369	360.326
229.4000	-10.5686	361.238
229.2000	-10.7174	362.156
229.0000	-10.9045	363.076
228.8000	-11.1494	363.999
228.6000	-11.3449	364.922
228.4000	-11.5187	365.849
228.2000	-11.704	366.777
228.0000	-11.8683	367.703
227.8000	-12.0408	368.627
227.6000	-12.2336	369.551
227.4000	-12.4108	370.477
227.2000	-12.5724	371.399
227.0000	-12.7144	372.322
226.8000	-12.8432	373.243
226.6000	-13.0202	374.165
226.4000	-13.1774	375.088
226.2000	-13.3084	376.01
226.0000	-13.4287	376.928
225.8000	-13.5536	377.846
225.6000	-13.7037	378.768
225.4000	-13.8016	379.684
225.2000	-13.9188	380.6
225.0000	-14.0043	381.512
224.8000	-14.0946	382.42
224.6000	-14.1387	383.329
224.4000	-14.2087	384.242
224.2000	-14.2959	385.151
224.0000	-14.4118	386.067
223.8000	-14.5557	386.976
223.6000	-14.6839	387.886
223.4000	-14.7623	388.798
223.2000	-14.8631	389.708
223.0000	-14.902	390.624
222.8000	-14.9769	391.54
222.6000	-15.0715	392.46
222.4000	-15.1742	393.377
222.2000	-15.2608	394.296
222.0000	-15.2514	395.22
221.8000	-15.3163	396.141
221.6000	-15.3327	397.072
221.4000	-15.4136	398.001
221.2000	-15.487	398.934
221.0000	-15.4606	399.872
220.8000	-15.4282	400.806
220.6000	-15.485	401.743
220.4000	-15.5123	402.68
220.2000	-15.5157	403.626
220.0000	-15.4814	404.57
219.8000	-15.4838	405.52
219.6000	-15.5022	406.474
219.4000	-15.5179	407.439
219.2000	-15.5366	408.4
219.0000	-15.4847	409.363
218.8000	-15.5281	410.336
218.6000	-15.5035	411.312
218.4000	-15.5432	412.296
218.2000	-15.5426	413.285
218.0000	-15.585	414.285
217.8000	-15.6517	415.285
217.6000	-15.6068	416.296
217.4000	-15.5674	417.309
217.2000	-15.5941	418.33
217.0000	-15.5632	419.364
216.8000	-15.5767	420.405
216.6000	-15.6002	421.458
216.4000	-15.5867	422.518
216.2000	-15.6161	423.592
216.0000	-15.5848	424.672
215.8000	-15.5206	425.772
215.6000	-15.4805	426.881
215.4000	-15.5434	428.011
215.2000	-15.5856	429.149
215.0000	-15.7332	430.304
214.8000	-15.7787	431.477
214.6000	-15.858	432.663
214.4000	-15.8775	433.868
214.2000	-15.971	435.094
214.0000	-16.0105	436.343
213.8000	-16.0178	437.616
213.6000	-16.1546	438.909
213.4000	-16.2547	440.228
213.2000	-16.2571	441.566
213.0000	-16.3667	442.929
212.8000	-16.5095	444.316
212.6000	-16.6018	445.73
212.4000	-16.7452	447.172
212.2000	-16.8986	448.638
212.0000	-17.004	450.137
211.8000	-17.1061	451.665
211.6000	-17.2354	453.228
211.4000	-17.4561	454.83
211.2000	-17.662	456.458
211.0000	-17.6721	458.122
210.8000	-17.7299	459.823
210.6000	-17.7546	461.565
210.4000	-17.7516	463.343
210.2000	-17.7763	465.165
210.0000	-17.8494	467.03
209.8000	-17.9554	468.936
209.6000	-18.1276	470.89
209.4000	-18.178	472.898
209.2000	-18.166	474.948
209.0000	-18.3116	477.05
208.8000	-18.2526	479.203
208.6000	-18.0544	481.415
208.4000	-18.0073	483.686
208.2000	-17.9434	486.014
208.0000	-17.9831	488.411
207.8000	-18.0213	490.87
207.6000	-18.0225	493.402
207.4000	-18.1541	496.009
207.2000	-18.2936	498.691
207.0000	-18.4171	501.455
206.8000	-18.1686	504.303
206.6000	-18.0473	507.232
206.4000	-17.8852	510.255
206.2000	-17.4907	513.376
206.0000	-17.2191	516.6
205.8000	-16.9379	519.933
205.6000	-16.6013	523.37
205.4000	-16.256	526.923
205.2000	-15.8906	530.589
205.0000	-15.5419	534.381
204.8000	-15.0345	538.304
204.6000	-14.6767	542.35
204.4000	-14.5267	546.532
204.2000	-14.1261	550.846
204.0000	-13.8574	555.297
203.8000	-13.6653	559.879
203.6000	-13.0388	564.586
203.4000	-12.5128	569.419
203.2000	-12.1922	574.36
203.0000	-11.67	579.406
202.8000	-11.3193	584.538
202.6000	-10.9978	589.743
202.4000	-10.4743	595.004
202.2000	-9.97852	600.306
202.0000	-9.79211	605.616
201.8000	-8.951	610.927
201.6000	-8.02752	616.214
201.4000	-7.5243	621.455
201.2000	-7.46544	626.636
201.0000	-6.30987	631.743
200.8000	-5.84778	636.759
200.6000	-5.24487	641.672
200.4000	-4.42623	646.473
200.2000	-3.98514	651.147
200.0000	-3.94976	655.694
199.8000	-3.90109	660.1
199.6000	-3.7475	664.356
199.4000	-3.44354	668.462
199.2000	-2.98487	672.403
199.0000	-2.3493	676.183
198.8000	-1.75592	679.792
198.6000	-0.801401	683.226
198.4000	0.207446	686.469
198.2000	0.0545813	689.51
198.0000	0.0906111	692.359
197.8000	1.01337	695.006
197.6000	1.26345	697.448
197.4000	0.911014	699.678
197.2000	1.18602	701.705
197.0000	1.36487	703.525
196.8000	1.53057	705.143
196.6000	1.49209	706.566
196.4000	1.75418	707.804
196.2000	2.33019	708.865
196.0000	2.28129	709.761
195.8000	2.19712	710.5
195.6000	1.73564	711.099
195.4000	2.08326	711.581
195.2000	2.11968	711.958
195.0000	2.13193	712.245

##### Extended Information
[Comments]
Sample name	kx8_d2_melt
Comment
User
Division
Company	EPFL

[Detailed Information]
Creation date	01.09.2017 13:23

Data array type	Linear data array * 2
Horizontal axis	Wavelength [nm]
Vertical axis(1)	CD [mdeg]
Vertical axis(2)	HT [V]
Start	250 nm
End	195 nm
Data interval	0.2 nm
Data points	276     

[Measurement Information]
Instrument Name	CD-Spectrometer
Model Name	J-815
Serial No.	A007961168

Accessory	PFD-425S
Accessory S/N	A001061180
  Temperature	20.00 C
  Control Sonsor	Holder
  Monitor Sensor	Holder
  Cell Length	10 mm

Photometric Mode	CD, HT
Measure Range	250 - 195 nm
Data pitch	0.2 nm
Sensitivity	Standard
D.I.T.	8 sec
Bandwidth	1.00 nm
Start Mode	Immediately
Scanning Speed	50 nm/min
Baseline Correction	None
Shutter Control	Auto
PMT Voltage	Auto
Accumulations	2
End Temperature.	20 C
Start Temperature.	90 C
Temperature. Interval	2 C
Ramp Rate	2 C/min

