TITLE	kx8_d2_melt
DATA TYPE	
ORIGIN	JASCO
OWNER	
DATE	17/09/01
TIME	13:23:13
SPECTROMETER/DATA SYSTEM	
LOCALE	2055
RESOLUTION	
DELTAX	-0.2
XUNITS	NANOMETERS
YUNITS	CD [mdeg]
Y2UNITS	HT [V]
FIRSTX	  250.0000
LASTX	  195.0000
NPOINTS	     276
FIRSTY	    -0.25985
MAXY	     6.22178
MINY	   -13.84151
XYDATA
250.0000	-0.259855	308.658
249.8000	-0.288335	308.933
249.6000	-0.310937	309.207
249.4000	-0.338072	309.488
249.2000	-0.374485	309.765
249.0000	-0.389619	310.042
248.8000	-0.43219	310.32
248.6000	-0.491948	310.595
248.4000	-0.535399	310.876
248.2000	-0.558362	311.16
248.0000	-0.563546	311.439
247.8000	-0.581669	311.728
247.6000	-0.600734	312.011
247.4000	-0.623662	312.297
247.2000	-0.626982	312.585
247.0000	-0.61489	312.87
246.8000	-0.61618	313.159
246.6000	-0.622882	313.449
246.4000	-0.652031	313.734
246.2000	-0.659595	314.029
246.0000	-0.656444	314.323
245.8000	-0.670147	314.618
245.6000	-0.704704	314.917
245.4000	-0.743489	315.219
245.2000	-0.777886	315.525
245.0000	-0.830702	315.832
244.8000	-0.870217	316.143
244.6000	-0.897638	316.453
244.4000	-0.926471	316.769
244.2000	-0.963203	317.086
244.0000	-0.972335	317.41
243.8000	-1.03441	317.732
243.6000	-1.09433	318.062
243.4000	-1.15566	318.395
243.2000	-1.20864	318.731
243.0000	-1.24864	319.075
242.8000	-1.28343	319.42
242.6000	-1.30533	319.771
242.4000	-1.33395	320.124
242.2000	-1.38383	320.486
242.0000	-1.4034	320.855
241.8000	-1.42872	321.224
241.6000	-1.46006	321.602
241.4000	-1.50201	321.983
241.2000	-1.53357	322.37
241.0000	-1.59291	322.761
240.8000	-1.69101	323.158
240.6000	-1.77187	323.562
240.4000	-1.84442	323.972
240.2000	-1.91937	324.387
240.0000	-1.99712	324.812
239.8000	-2.0661	325.242
239.6000	-2.13366	325.682
239.4000	-2.2092	326.126
239.2000	-2.3186	326.577
239.0000	-2.39943	327.04
238.8000	-2.46464	327.509
238.6000	-2.55123	327.985
238.4000	-2.62181	328.468
238.2000	-2.6844	328.962
238.0000	-2.74505	329.463
237.8000	-2.85825	329.977
237.6000	-2.92994	330.498
237.4000	-2.99579	331.03
237.2000	-3.05683	331.571
237.0000	-3.1346	332.119
236.8000	-3.21063	332.68
236.6000	-3.27664	333.251
236.4000	-3.3656	333.831
236.2000	-3.44701	334.421
236.0000	-3.55779	335.021
235.8000	-3.67291	335.632
235.6000	-3.74443	336.252
235.4000	-3.81873	336.883
235.2000	-3.88684	337.527
235.0000	-3.98904	338.18
234.8000	-4.08709	338.843
234.6000	-4.20249	339.52
234.4000	-4.30615	340.21
234.2000	-4.37447	340.912
234.0000	-4.4351	341.628
233.8000	-4.51598	342.354
233.6000	-4.62618	343.092
233.4000	-4.73423	343.844
233.2000	-4.8102	344.607
233.0000	-4.89755	345.375
232.8000	-5.02921	346.159
232.6000	-5.09119	346.956
232.4000	-5.16639	347.757
232.2000	-5.23428	348.577
232.0000	-5.29207	349.403
231.8000	-5.35158	350.245
231.6000	-5.43379	351.097
231.4000	-5.54557	351.963
231.2000	-5.58408	352.839
231.0000	-5.64007	353.72
230.8000	-5.74467	354.612
230.6000	-5.85606	355.514
230.4000	-5.93987	356.427
230.2000	-6.05125	357.341
230.0000	-6.13438	358.266
229.8000	-6.20096	359.194
229.6000	-6.25405	360.132
229.4000	-6.33833	361.074
229.2000	-6.43151	362.018
229.0000	-6.49195	362.97
228.8000	-6.55195	363.928
228.6000	-6.654	364.886
228.4000	-6.75719	365.849
228.2000	-6.83066	366.819
228.0000	-6.92017	367.788
227.8000	-6.99397	368.761
227.6000	-7.075	369.732
227.4000	-7.17148	370.706
227.2000	-7.2602	371.685
227.0000	-7.33526	372.662
226.8000	-7.44902	373.638
226.6000	-7.58518	374.62
226.4000	-7.73478	375.603
226.2000	-7.8087	376.587
226.0000	-7.85311	377.572
225.8000	-7.90088	378.554
225.6000	-7.98688	379.535
225.4000	-8.09124	380.515
225.2000	-8.14575	381.494
225.0000	-8.22224	382.474
224.8000	-8.28755	383.451
224.6000	-8.32107	384.426
224.4000	-8.39256	385.404
224.2000	-8.42105	386.379
224.0000	-8.48208	387.358
223.8000	-8.54048	388.335
223.6000	-8.53679	389.313
223.4000	-8.53637	390.293
223.2000	-8.54736	391.276
223.0000	-8.53528	392.259
222.8000	-8.61422	393.244
222.6000	-8.60219	394.238
222.4000	-8.65639	395.226
222.2000	-8.72108	396.219
222.0000	-8.74204	397.211
221.8000	-8.75474	398.208
221.6000	-8.79331	399.205
221.4000	-8.77688	400.205
221.2000	-8.80637	401.205
221.0000	-8.85606	402.21
220.8000	-8.87813	403.22
220.6000	-8.95964	404.229
220.4000	-9.07996	405.242
220.2000	-9.09669	406.26
220.0000	-9.04069	407.279
219.8000	-9.03833	408.304
219.6000	-8.98	409.327
219.4000	-9.06337	410.358
219.2000	-9.09827	411.394
219.0000	-9.0777	412.438
218.8000	-9.06673	413.485
218.6000	-9.08791	414.545
218.4000	-9.09104	415.609
218.2000	-9.13844	416.678
218.0000	-9.24852	417.759
217.8000	-9.28583	418.849
217.6000	-9.33214	419.949
217.4000	-9.3237	421.059
217.2000	-9.35842	422.176
217.0000	-9.46059	423.31
216.8000	-9.51736	424.454
216.6000	-9.62857	425.613
216.4000	-9.72786	426.79
216.2000	-9.72516	427.978
216.0000	-9.75078	429.187
215.8000	-9.86367	430.417
215.6000	-9.89098	431.663
215.4000	-9.94367	432.932
215.2000	-9.9972	434.222
215.0000	-10.1173	435.542
214.8000	-10.1984	436.886
214.6000	-10.1737	438.261
214.4000	-10.2271	439.662
214.2000	-10.3273	441.095
214.0000	-10.3862	442.563
213.8000	-10.4152	444.064
213.6000	-10.4624	445.607
213.4000	-10.5276	447.188
213.2000	-10.5926	448.81
213.0000	-10.8072	450.476
212.8000	-10.8578	452.192
212.6000	-11.0347	453.957
212.4000	-11.2748	455.772
212.2000	-11.4632	457.644
212.0000	-11.6033	459.57
211.8000	-11.7492	461.556
211.6000	-11.7796	463.606
211.4000	-11.8143	465.725
211.2000	-11.8705	467.913
211.0000	-11.9273	470.177
210.8000	-12.0992	472.522
210.6000	-12.2967	474.95
210.4000	-12.3587	477.466
210.2000	-12.4883	480.076
210.0000	-12.5931	482.78
209.8000	-12.707	485.586
209.6000	-12.8933	488.496
209.4000	-13.0195	491.515
209.2000	-12.9383	494.652
209.0000	-13.0603	497.908
208.8000	-13.1184	501.294
208.6000	-13.1919	504.811
208.4000	-13.1339	508.462
208.2000	-13.204	512.251
208.0000	-13.5703	516.183
207.8000	-13.6319	520.264
207.6000	-13.6544	524.503
207.4000	-13.8415	528.899
207.2000	-13.7198	533.452
207.0000	-13.445	538.154
206.8000	-13.2963	543.012
206.6000	-13.0813	548.02
206.4000	-12.717	553.166
206.2000	-12.8602	558.445
206.0000	-12.495	563.843
205.8000	-12.0472	569.347
205.6000	-11.7071	574.939
205.4000	-11.3916	580.597
205.2000	-11.171	586.302
205.0000	-11.3246	592.033
204.8000	-11.369	597.77
204.6000	-11.2655	603.482
204.4000	-10.9412	609.154
204.2000	-10.493	614.765
204.0000	-10.0383	620.297
203.8000	-10.066	625.732
203.6000	-9.2967	631.06
203.4000	-8.50872	636.267
203.2000	-8.04943	641.344
203.0000	-7.44331	646.277
202.8000	-7.18513	651.06
202.6000	-6.94714	655.681
202.4000	-6.43513	660.137
202.2000	-5.93889	664.415
202.0000	-5.46643	668.514
201.8000	-5.03604	672.425
201.6000	-4.60461	676.139
201.4000	-3.60141	679.656
201.2000	-2.8236	682.965
201.0000	-2.51748	686.056
200.8000	-1.89447	688.928
200.6000	-1.26	691.578
200.4000	-1.04241	694.001
200.2000	-0.905163	696.199
200.0000	-0.207057	698.176
199.8000	0.335278	699.933
199.6000	1.00422	701.48
199.4000	1.29526	702.821
199.2000	1.33718	703.966
199.0000	1.62017	704.931
198.8000	1.87449	705.727
198.6000	2.40648	706.378
198.4000	3.149	706.898
198.2000	3.60445	707.301
198.0000	4.22789	707.614
197.8000	4.66596	707.846
197.6000	4.78091	708.019
197.4000	4.94753	708.143
197.2000	5.52346	708.231
197.0000	5.50287	708.291
196.8000	5.37889	708.328
196.6000	5.8137	708.354
196.4000	5.71268	708.369
196.2000	5.28157	708.372
196.0000	5.57639	708.374
195.8000	5.41473	708.373
195.6000	5.32066	708.371
195.4000	5.39619	708.367
195.2000	5.64138	708.361
195.0000	6.22178	708.358

##### Extended Information
[Comments]
Sample name	kx8_d2_melt
Comment
User
Division
Company	EPFL

[Detailed Information]
Creation date	01.09.2017 13:23

Data array type	Linear data array * 2
Horizontal axis	Wavelength [nm]
Vertical axis(1)	CD [mdeg]
Vertical axis(2)	HT [V]
Start	250 nm
End	195 nm
Data interval	0.2 nm
Data points	276     

[Measurement Information]
Instrument Name	CD-Spectrometer
Model Name	J-815
Serial No.	A007961168

Accessory	PFD-425S
Accessory S/N	A001061180
  Temperature	20.00 C
  Control Sonsor	Holder
  Monitor Sensor	Holder
  Cell Length	10 mm

Photometric Mode	CD, HT
Measure Range	250 - 195 nm
Data pitch	0.2 nm
Sensitivity	Standard
D.I.T.	8 sec
Bandwidth	1.00 nm
Start Mode	Immediately
Scanning Speed	50 nm/min
Baseline Correction	None
Shutter Control	Auto
PMT Voltage	Auto
Accumulations	2
End Temperature.	20 C
Start Temperature.	90 C
Temperature. Interval	2 C
Ramp Rate	2 C/min

